# Wall Pressure Profile
# x(mm) p(Pa)
241.0   4280
248.5   4278
256.0   4311
263.5   4276
271.0   4327
278.5   4312
286.0   4339
293.5   4345
301.0   4336
305.0   4290
308.8   4349
312.6   4329
316.4   4350
320.2   4340
324.0   4340
327.8   4440
331.6   4760
335.4   9713
339.2   13843
343.0   18093
346.8   22300
350.6   26132
354.4   28100
358.2   29925
362.0   31433
365.8   32120
369.6   32500
373.4   33090
377.2   33081
381.0   33357
384.8   33389
388.6   33407
392.4   33211
396.2   33281
400.0   33245
406.3   32956
412.5   33252
418.8   33242
425.0   33207
431.3   33365
437.5   33220
443.8   33204
450.0   33329
456.3   33223
462.5   32564
468.8   30500
475.0   28262
481.3   25836
